time_s,aligned_time_s,ppg_bandpassed,filtered_final,stage_1,stage_2,reference_1,reference_2
104.0,108.5,16.874507336020148,0.0,0.0,0.0,-0.4112257968568608,0.11504115350029867
104.02,108.52,20.111869047131155,0.5798258874008588,0.5210652830576931,0.5798258874008588,-0.4079310181032872,0.02906358327257414
104.04,108.54,21.992909948699555,0.6338637433416964,0.5700267223695207,0.6338637433416964,-0.39677821138638547,-0.1009601924748689
104.06,108.56,22.019220608111883,0.6328725909312591,0.5689156949863513,0.6328725909312591,-0.3580276761662328,-0.2637763601385382
104.08,108.58,19.799091300178098,0.5629369869618842,0.5079768741661096,0.5629369869618842,-0.2727228985445581,-0.4381009664989616
104.1,108.6,15.232979732115092,0.4186739526443187,0.38543750287498035,0.4186739526443187,-0.1337082305605109,-0.5985103956285123
104.12,108.62,8.655006756573519,0.211175638137118,0.21041350521293906,0.211175638137118,0.04662155900842125,-0.7230011411115753
104.14,108.64,0.8697594983961724,-0.029260035548820812,0.0036176216217292763,-0.029260035548820812,0.23568608855185838,-0.7993599561930133
104.16,108.66,-6.943981109897021,-0.25958978038954955,-0.20415534914338562,-0.25958978038954955,0.3885499413719603,-0.8278144963215569
104.18,108.68,-13.441973328573965,-0.4364958960201268,-0.37672273287038976,-0.4364958960201268,0.46217050121471326,-0.818955519191324
104.2,108.7,-17.374174773899437,-0.5273259356953732,-0.4805740572272719,-0.5273259356953732,0.43112264158215,-0.7879105429703506
104.22,108.72,-17.82354890768813,-0.5145854276551474,-0.49269079789657216,-0.5145854276551474,0.2987842296759278,-0.7472663831958769
104.24,108.74,-14.374058808798038,-0.3947394264449462,-0.4036172702515116,-0.3947394264449462,0.09924807393113932,-0.7016879810428714
104.26,108.76,-7.1899789089117725,-0.1762119165397756,-0.21679429430065308,-0.1762119165397756,-0.11155098334185687,-0.6464686760887598
104.28,108.78,2.9932303441689143,0.12007555889980895,0.051285085589120025,0.12007555889980895,-0.27299637492356094,-0.5706464143799214
104.3,108.8,14.965948989143765,0.4610192487609403,0.37046445740765277,0.4610192487609403,-0.33944144297833756,-0.46338702270760884
104.32,108.82,27.22883423918213,0.8074876565988411,0.7008730798617762,0.8074876565988411,-0.29531227489365863,-0.3208787775077212
104.34,108.84,38.246881037562545,1.1226114056030763,1.0016221501446239,1.1226114056030763,-0.1600954850236164,-0.15075763169422865
104.36,108.86,46.723623761167666,1.3738563890882538,1.2380813791240741,1.3738563890882538,0.018604307687008048,0.02775539719949597
104.38,108.88,51.82245464594482,1.531217507973787,1.3851793674907777,1.531217507973787,0.1812696123461338,0.1879422486353812
104.4,108.9,53.26799678330352,1.572929546981229,1.430457950286404,1.572929546981229,0.2760222878194391,0.302290869811114
104.42,108.92,51.29808235748386,1.4989054203550796,1.3773850585642375,1.4989054203550796,0.27488844567463844,0.3496328079938547
104.44,108.94,46.48979097048829,1.3351924184009736,1.2433239034947454,1.3351924184009736,0.181856227726735,0.32081833240394064
104.46,108.96,39.52863233221132,1.118707617163554,1.0503835752640855,1.118707617163554,0.030812557291302816,0.22168189998195262
104.48,108.98,31.009165603479815,0.87546033580359,0.8161813712264037,0.87546033580359,-0.12543436451068857,0.07273614299998686
104.5,109.0,21.337804891409657,0.6123168914633076,0.55141298316469,0.6123168914633076,-0.23135453253561353,-0.09434470356815966
104.52,109.02,10.759300390053358,0.3251005657459608,0.26306540640307047,0.3251005657459608,-0.24512558888079025,-0.24284368293638
104.54,109.04,-0.5290054310128031,0.011074456657447537,-0.04212664403878007,0.011074456657447537,-0.15052573150263424,-0.33865673030121063
104.56,109.06,-12.245231604190932,-0.32484364460480664,-0.3560595014413214,-0.32484364460480664,0.03886111297395532,-0.35804483852234426
104.58,109.08,-23.93701724263149,-0.6709546964825881,-0.6673677279549914,-0.6709546964825881,0.28385939637995966,-0.2937116820093716
104.6,109.1,-34.96821088474668,-1.0101042683679902,-0.9584679548025057,-1.0101042683679902,0.5306524052013065,-0.15727139937953954
104.62,109.12,-44.565526769230715,-1.3170894735251946,-1.2051319072987439,-1.3170894735251946,0.7251008261949186,0.02336760965001827
104.64,109.14,-51.895417900259915,-1.5569433311563607,-1.3820538933402908,-1.5569433311563607,0.8264235186877955,0.21165583952526354
104.66,109.16,-56.15065962852997,-1.6920232470607077,-1.4712971420921324,-1.6920232470607077,0.8166037392068711,0.37284786179562784
104.68,109.18,-56.64689398473217,-1.696512652179194,-1.4656951346424394,-1.696512652179194,0.7031566033423245,0.48348837117195265
104.7,109.2,-52.9408947426945,-1.566186770198962,-1.3646350475619449,-1.566186770198962,0.5148684729573743,0.5365790371197171
104.72,109.22,-44.97121664972395,-1.3150258229383844,-1.1691719723877532,-1.3150258229383844,0.29224673464675893,0.5411240056585527
104.74,109.24,-33.19103721978969,-0.9656542456033567,-0.8840157006982213,-0.9656542456033567,0.0759096463120533,0.5170591418558939
104.76,109.26,-18.632737764058305,-0.5461079541327182,-0.5253324462145492,-0.5461079541327182,-0.10354978607167771,0.48790376469023916
104.78,109.28,-2.8410973215998396,-0.09393961705259593,-0.12635466738536955,-0.09393961705259593,-0.23151423268133264,0.4736211400325303
104.8,109.3,12.349163576649866,0.3417891188200855,0.26566775179225544,0.3417891188200855,-0.3098177746487403,0.48558947746212056
104.82,109.32,25.148362427003313,0.7067928609187579,0.6003042729715393,0.7067928609187579,-0.3520021689951836,0.5246980948579592
104.84,109.34,34.1559348597885,0.9534153076165699,0.8363382953893614,0.9534153076165699,-0.37506074710234966,0.5825884075530278
104.86,109.36,38.59422597068116,1.052188137359866,0.9501509749205828,1.052188137359866,-0.3905317870170076,0.6451357546029703
104.88,109.38,38.35564167257007,0.9991139718087338,0.9381475730848065,0.9991139718087338,-0.3982902159556992,0.696705043277786
104.9,109.4,33.869126494427675,0.8159598541719008,0.8138724184678074,0.8159598541719008,-0.3858038599211692,0.723760919364724
104.92,109.42,25.86893496148736,0.5419650010909103,0.6015569475626295,0.5419650010909103,-0.3337763184174245,0.7170363272109355
104.94,109.44,15.178372541169054,0.21939335131873677,0.3283744864359017,0.21939335131873677,-0.2263848927635701,0.6722583416202605
104.96,109.46,2.5915310052935197,-0.11986711725414055,0.0180808016822195,-0.11986711725414055,-0.06192475326033758,0.5899150513784379
104.98,109.48,-11.129231787273605,-0.45919319659515584,-0.31128749974166436,-0.45919319659515584,0.14102068366386195,0.4745749532539192
105.0,109.5,-25.183073450625688,-0.7917492305073859,-0.6447356441112221,-0.7917492305073859,0.3451662636287481,0.33405616715292435
105.02,109.52,-38.657722712129484,-1.1100174023579457,-0.965457820166381,-1.1100174023579457,0.5039175743268063,0.17853985865713876
105.04,109.54,-50.51248534707406,-1.398621816364808,-1.252893433083977,-1.398621816364808,0.5752853591394985,0.019616618283192864
105.06,109.56,-59.640824973551126,-1.6346308867608337,-1.485638079943596,-1.6346308867608337,0.53520560454826,-0.13076415007408745
105.08,109.58,-64.9980747470008,-1.7920476420680367,-1.6448785700046642,-1.7920476420680367,0.38553731611339165,-0.26142819952885876
105.1,109.6,-65.75553408467665,-1.8447803040961246,-1.7131789405525586,-1.8447803040961246,0.1541446842288378,-0.3631290715640199
105.12,109.62,-61.43929262114115,-1.7681440423901769,-1.6708349350457323,-1.7681440423901769,-0.11273724120938819,-0.4296371370932481
105.14,109.64,-52.026509634111044,-1.5441319964283988,-1.497836579090367,-1.5441319964283988,-0.36322273673204436,-0.45867449127422366
105.16,109.66,-37.98983411870802,-1.171648428622546,-1.1847122683475912,-1.171648428622546,-0.553565974275988,-0.4525720786721898
105.18,109.68,-20.28933053041769,-0.6742104241231823,-0.7447831805647067,-0.6742104241231823,-0.6589424989541558,-0.4184587305226554
105.2,109.7,-0.3096216041173135,-0.096837820357486,-0.21662474430664302,-0.096837820357486,-0.6782801911905461,-0.3677235305535297
105.22,109.72,20.263068599999936,0.5056519350151216,0.34530982584865677,0.5056519350151216,-0.6321458934418599,-0.31454017227300235
105.24,109.74,39.62440411179279,1.0786261141146836,0.8831356421231897,1.0786261141146836,-0.5548159370611286,-0.2735017285243791
105.26,109.76,56.07977593909621,1.571256888066782,1.3436222884272722,1.571256888066782,-0.483198756014505,-0.2567903881717935
105.28,109.78,68.27629200116293,1.9386616037095912,1.6830688009285941,1.9386616037095912,-0.4458031120371149,-0.27157361758384096
105.3,109.8,75.38078153835615,2.1470017092507887,1.87247620759485,2.1470017092507887,-0.4546281187771891,-0.31833533425433125
105.32,109.82,77.15015287563166,2.1794605183674283,1.902200911182728,2.1794605183674283,-0.50208721164665,-0.39063727789095937
105.34,109.84,73.87346795588992,2.039545326071173,1.7829848154168704,2.039545326071173,-0.5639553476851299,-0.4764528702914475
105.36,109.86,66.21411276674945,1.751400770663819,1.5424354515034708,1.751400770663819,-0.6077361440643391,-0.5608081326618315
105.38,109.88,55.01975151608618,1.356886677476856,1.2179877722308503,1.356886677476856,-0.6040250433450379,-0.6290978073515439
105.4,109.9,41.17449656458589,0.906778528952027,0.8475999307216054,0.906778528952027,-0.5371317954251061,-0.6702467075378448
105.42,109.92,25.537025414440812,0.4466403961361018,0.46089152962625235,0.4466403961361018,-0.4112013411439626,-0.678942676056896
105.44,109.94,8.958097977714795,0.005298535365452078,0.0752706090162325,0.005298535365452078,-0.24962241778312977,-0.6564464172889564
105.46,109.96,-7.668909779681562,-0.40591517144756695,-0.30066077557405135,-0.40591517144756695,-0.08806475106920517,-0.6098533182845556
105.48,109.98,-23.378799056821563,-0.7840413506287669,-0.6595764649102568,-0.7840413506287669,0.036269549861214403,-0.5499894306757358
105.5,110.0,-37.158196475358885,-1.1236880828935059,-0.9894576478195598,-1.1236880828935059,0.095727872040286,-0.4883129952561358
105.52,110.02,-48.019009280548445,-1.411108698459216,-1.2720059466138374,-1.411108698459216,0.08061274346113272,-0.43339688769868373
105.54,110.04,-55.09377713360355,-1.623684761188525,-1.4838083846668901,-1.623684761188525,0.0028697460663842642,-0.3879083183500831
105.56,110.06,-57.72208847029001,-1.732483417265445,-1.5977968183744524,-1.732483417265445,-0.10595268804290549,-0.34725941128049037
105.58,110.08,-55.514441698786825,-1.7074438263472556,-1.5857887824154955,-1.7074438263472556,-0.2023382483483519,-0.30084222325461063
105.6,110.1,-48.4017275590377,-1.5259720191257662,-1.4247878751131098,-1.5259720191257662,-0.2425881345792825,-0.23585987971164452
105.62,110.12,-36.68477905090528,-1.1821495512042266,-1.1061914182147106,-1.1821495512042266,-0.1959987870752506,-0.142598986908463
105.64,110.14,-21.081568993442627,-0.6908366382234753,-0.6425354824903079,-0.6908366382234753,-0.055696899004841906,-0.019158924272325552
105.66,110.16,-2.7438171377435725,-0.0867208147515863,-0.06860188913186932,-0.0867208147515863,0.15667927249002392,0.12634906581743421
105.68,110.18,16.795704300418684,0.5742692282159745,0.5601518627115849,0.5742692282159745,0.39491686039090834,0.2771906720020052
105.7,110.2,35.766592316112316,1.2114142157569152,1.1705221232127438,1.2114142157569152,0.6006211734315019,0.41261129582790274
105.72,110.22,52.37966189725551,1.7298044277287692,1.6827122007366981,1.7298044277287692,0.7208918271720478,0.5140574414567044
105.74,110.24,65.0697614805994,2.0542639791290105,2.0332198332969957,2.0542639791290105,0.7258457945561176,0.5708959582419226
105.76,110.26,72.69549455869672,2.161764984235421,2.1951127180878456,2.161764984235421,0.6199857021257383,0.5837532377594522
105.78,110.28,74.64469865794379,2.0775816650354706,2.176953996300109,2.0775816650354706,0.44305052155377755,0.5644377150831753
105.8,110.3,70.83434365480088,1.841320311926867,2.004460447993804,1.841320311926867,0.2594742565633526,0.5325312171285791
105.82,110.32,61.63324797124317,1.4814294080997505,1.7060883136447471,1.4814294080997505,0.1395617624024175,0.5097065285365336
105.84,110.34,47.75466144655225,1.0159680039467311,1.3110862556860556,1.0159680039467311,0.13826790044846327,0.5133376764894724
105.86,110.36,30.159590710197985,0.46462923533206624,0.8502742622059724,0.46462923533206624,0.2780597425289627,0.5510319091507169
105.88,110.38,9.99061766130499,-0.14367324316161384,0.3523945285145171,-0.14367324316161384,0.5408967915053695,0.6175364987149844
105.9,110.4,-11.466687165313495,-0.7659166275772261,-0.15743885927249585,-0.7659166275772261,0.8716141229181338,0.6951430173763675
105.92,110.42,-32.81231803533204,-1.3405499489682324,-0.6512277992885166,-1.3405499489682324,1.191787225501151,0.7580697954616659
105.94,110.44,-52.572031426423784,-1.7972961139906274,-1.0928652526183722,-1.7972961139906274,1.4203945570902872,0.7801692286579641
105.96,110.46,-69.2666924094351,-2.090821414258099,-1.4480501009981552,-2.090821414258099,1.495882576848597,0.7438305576479891
105.98,110.48,-81.51949600709841,-2.231561285346955,-1.702953820846887,-2.231561285346955,1.3935801455827281,0.646794742772121
106.0,110.5,-88.19916915476806,-2.271957699068235,-1.866268081718752,-2.271957699068235,1.13284040455763,0.503696498025884
106.02,110.52,-88.58484027813388,-2.254772619486729,-1.9470395477728322,-2.254772619486729,0.770551537952937,0.3410004099567403
106.04,110.54,-82.5224765603177,-2.1758460129752693,-1.9331730028399967,-2.1758460129752693,0.3822008865907877,0.18703408764545515
106.06,110.56,-70.52606966143337,-1.993085384809344,-1.7951102246870592,-1.993085384809344,0.037005335734313444,0.06146369758816871
106.08,110.58,-53.770380844250745,-1.6684737719624256,-1.5123958919484903,-1.6684737719624256,-0.22332395492713558,-0.03090053979610992
106.1,110.6,-33.941185485790385,-1.2063688273078281,-1.0995355265777422,-1.2063688273078281,-0.3940253395459718,-0.09923104936392427
106.12,110.62,-12.957525260016723,-0.6589743334470338,-0.6088672964367042,-0.6589743334470338,-0.5020708805746239,-0.15965874709071892
106.14,110.64,7.360591634751403,-0.1023186896472017,-0.11077126521647648,-0.1023186896472017,-0.5896169561327593,-0.22596538777518346
106.16,110.66,25.57129128374881,0.3921560252103302,0.3306368525313681,0.3921560252103302,-0.6934293330711631,-0.3025102547143118
106.18,110.68,40.74414821582917,0.7743001412637929,0.672671036105986,0.7743001412637929,-0.8281437644186764,-0.38226260266418627
106.2,110.7,52.414340460898195,1.0208773166603213,0.8984693232419635,1.0208773166603213,-0.9790982320112612,-0.4501273407379515
106.22,110.72,60.398830921661926,1.1357253455739913,1.0141571501006952,1.1357253455739913,-1.1069450925616238,-0.48950737077293505
106.24,110.74,64.57286471051601,1.145972980600193,1.0420954386654078,1.145972980600193,-1.162239361568468,-0.489120272303428
106.26,110.76,64.719205140775,1.0910418577572796,1.0111582268268293,1.0910418577572796,-1.1046724504763996,-0.4475275425391038
106.28,110.78,60.525258056633064,1.0038227519540108,0.9440270478055477,1.0038227519540108,-0.9198986203217872,-0.3740863968031902
106.3,110.8,51.73204971706208,0.8925909826382084,0.8452085509316254,0.8925909826382084,-0.627873437253922,-0.2864131875563651
106.32,110.82,38.36945882674189,0.7354874548816751,0.6970421402098257,0.7354874548816751,-0.2798724208496921,-0.20550136534660082
106.34,110.84,20.97611364590571,0.4922869594710681,0.4683061367834246,0.4922869594710681,0.054613184571364805,-0.15014704341723323
106.36,110.86,0.7122467382251564,0.12891110875956005,0.13337879719821083,0.12891110875956005,0.3067073117818081,-0.13223443715836267
106.38,110.88,-20.68133823813733,-0.35771447892994906,-0.3075178091994444,-0.35771447892994906,0.42689370440280605,-0.15387360458687258
106.4,110.9,-41.071676829787826,-0.9297125556637224,-0.8201847070906554,-0.9297125556637224,0.3982823206663602,-0.20675676727052805
106.42,110.92,-58.22574697697981,-1.5166895733056727,-1.344346807917869,-1.5166895733056727,0.2407401136850538,-0.2737760754518374
106.44,110.94,-70.14841450407773,-2.030169910723704,-1.8063474597745084,-2.030169910723704,0.00474102530960731,-0.33284840132426036
106.46,110.96,-75.40740719656479,-2.377071474287999,-2.128033693895199,-2.377071474287999,-0.24332445109107284,-0.3625313612394755
106.48,110.98,-73.38812711827272,-2.480789107372058,-2.239608784356624,-2.480789107372058,-0.44001745468055486,-0.3481800456775117
106.5,111.0,-64.42466808096198,-2.31004690110814,-2.103263336197961,-2.31004690110814,-0.5421654486850347,-0.2866181588931252
106.52,111.02,-49.76565711768683,-1.893602910720826,-1.733640975091964,-1.893602910720826,-0.5375001905644515,-0.18737449155593786
106.54,111.04,-31.36083243785991,-1.3056610984069312,-1.1949890460312553,-1.3056610984069312,-0.4458106721559497,-0.06969982752532537
106.56,111.06,-11.496281144880728,-0.638175112941883,-0.5772536289414674,-0.638175112941883,-0.31072490186645146,0.043731341360069446
106.58,111.08,7.645905777979285,0.01778314306096716,0.02912522735831477,0.01778314306096716,-0.1847328485942204,0.13419431363042927
106.6,111.1,24.38994579684424,0.5833589790484569,0.5500867063949805,0.5833589790484569,-0.11173869798998151,0.19271024225518946
106.62,111.12,37.80996862527476,1.0065766973617445,0.940156643066904,1.0065766973617445,-0.11223330823364117,0.22216387771285892
106.64,111.14,47.735114947183185,1.2749271373314803,1.1900090459030082,1.2749271373314803,-0.17588734474921958,0.2348942190054455
106.66,111.16,54.51969008050942,1.4131192144281208,1.3233863525631355,1.4131192144281208,-0.26460512466313507,0.24653079649449552
106.68,111.18,58.67258640027164,1.46626930218192,1.3827275725030401,1.46626930218192,-0.3258313220790093,0.2683766748037455
106.7,111.2,60.494391262867936,1.4791209324190566,1.4100660596928214,1.4791209324190566,-0.3120375154909202,0.30140248707728073
106.72,111.22,59.86465601355201,1.4787385019247834,1.429578916100644,1.4787385019247834,-0.19951712086930204,0.3343947677647295
106.74,111.24,56.26183663371665,1.4639553970218213,1.4360228626524882,1.4639553970218213,0.0006296320595769681,0.3471468262240957
106.76,111.26,49.01070400676196,1.4052897340139945,1.3935965879655647,1.4052897340139945,0.24389136323348226,0.31759426884559805
106.78,111.28,37.667612306011236,1.2579793243824926,1.2493244565006218,1.2579793243824926,0.466265386248305,0.2303600768617686
106.8,111.3,22.399591609819137,0.98479498093587,0.9598762967016837,0.98479498093587,0.6060087210819224,0.08373959927992092
106.82,111.32,4.208686986310962,0.5774912310143523,0.5194920901708209,0.5774912310143523,0.6251582131578417,-0.1072875641186792
106.84,111.34,-15.09517918138893,0.0659832015217925,-0.029989767117033383,0.0659832015217925,0.5226439732984177,-0.3131581957443608
106.86,111.36,-33.17885766808549,-0.48389931939926983,-0.6118203727057927,-0.48389931939926983,0.334288180494507,-0.4964853005962187
106.88,111.38,-47.643834924428894,-0.9794082253175813,-1.134241972834452,-0.9794082253175813,0.12029267360641463,-0.6215533833000382
106.9,111.4,-56.52156904721693,-1.3235582114208813,-1.5067741596735027,-1.3235582114208813,-0.054603020908744096,-0.66369258714734
106.92,111.42,-58.67210588022685,-1.4521576261702283,-1.6584971782393083,-1.4521576261702283,-0.1410463358625937,-0.6156156082992074
106.94,111.44,-53.9925400185736,-1.35751741899946,-1.5591957259734242,-1.35751741899946,-0.11866212420736624,-0.4887524088929152
106.96,111.46,-43.397958236117404,-1.076175132285553,-1.229537622583829,-1.076175132285553,0.00016418811490888228,-0.3093508120408407
106.98,111.48,-28.592799174422854,-0.6612851459612983,-0.7323720810121711,-0.6612851459612983,0.1761913002908364,-0.11098943880624648
107.0,111.5,-11.698188571212091,-0.1721509060051247,-0.15469547912805529,-0.1721509060051247,0.3560251572761986,0.07367596952844459
107.02,111.52,5.166332313673087,0.32148565877038604,0.4099843820895762,0.32148565877038604,0.4875179413137133,0.2192597031885133
107.04,111.54,20.24106034808241,0.7462810056335148,0.8801304577599247,0.7462810056335148,0.5338726022106278,0.31076788608721356
107.06,111.56,32.34316315696492,1.0500555908977698,1.2050199997502933,1.0500555908977698,0.4832362424013006,0.3438260663281084
107.08,111.58,40.90910391837192,1.2212209145990187,1.3737337594122738,1.2212209145990187,0.3516040089501733,0.3232548434394833
107.1,111.6,45.88227651494474,1.2828027055670672,1.407600600585403,1.2828027055670672,0.17822219726861172,0.2610881663591966
107.12,111.62,47.50811585336151,1.2698466453343742,1.3435328071667716,1.2698466453343742,0.014519916168943542,0.17444403761537564
107.14,111.64,46.11973119508916,1.2107340517335248,1.2197684628530605,1.2107340517335248,-0.09039446354678499,0.08315615720185458
107.16,111.66,41.9894184463779,1.119812974886118,1.0672578361071592,1.119812974886118,-0.10331137866023342,0.007048876015743543
107.18,111.68,35.28758078234796,0.9967808735696282,0.9041507164856404,0.9967808735696282,-0.015415775857041028,-0.03700310624522311
107.2,111.7,26.146350638038527,0.8291143975017353,0.7331040956414615,0.8291143975017353,0.1565637588786507,-0.03784805299115366
107.22,111.72,14.79047571949518,0.5981645997816529,0.5440057862486956,0.5981645997816529,0.37604985521443807,0.007835304601433437
107.24,111.74,1.6819133927290322,0.2894012988958622,0.3228094892465718,0.2894012988958622,0.5964680568719412,0.09465389888618303
107.26,111.76,-12.37666461327571,-0.09562089697770111,0.06301059686778498,-0.09562089697770111,0.7720753950808841,0.20939401352128212
107.28,111.78,-26.226600734127214,-0.5306497923034514,-0.22619883842831112,-0.5306497923034514,0.8675224667461001,0.3339600043301715
107.3,111.8,-38.45679226211291,-0.9656178934639884,-0.5198211131276269,-0.9656178934639884,0.86483676740649,0.4498368873035527
107.32,111.82,-47.6258579861747,-1.3395270380955404,-0.7844037826730131,-1.3395270380955404,0.7665396494758383,0.5425509013452611
107.34,111.84,-52.55733296504915,-1.5992959857735327,-0.9871418316895845,-1.5992959857735327,0.5935806338072864,0.6042587151209742
107.36,111.86,-52.619149944943864,-1.7137132530438133,-1.1020960125806865,-1.7137132530438133,0.37806428960034744,0.6334943217683591
107.38,111.88,-47.887559334943326,-1.6773084140025891,-1.1142043742575884,-1.6773084140025891,0.1530892482372185,0.6326747380443912
107.4,111.9,-39.133466475269444,-1.507557543233442,-1.023336309761608,-1.507557543233442,-0.05644069747463374,0.6050111114499024
107.42,111.92,-27.63962551501222,-1.2398267841644066,-0.8470939897177001,-1.2398267841644066,-0.2387385308461165,0.5523851649359098
107.44,111.94,-14.92047639325994,-0.9203786679427082,-0.6188060818600648,-0.9203786679427082,-0.39462468380077603,0.47490027363056264
107.46,111.96,-2.440343007301985,-0.5970311954652042,-0.37984239106317863,-0.5970311954652042,-0.532612815624358,0.3719400799609263
107.48,111.98,8.593699450468147,-0.3099085290190379,-0.16947642423287043,-0.3099085290190379,-0.6618838491902527,0.24408897112309527
107.5,112.0,17.33166002420548,-0.0857379790975157,-0.016491228141299774,-0.0857379790975157,-0.7857514593380296,0.09511910585648309
107.52,112.02,23.285131577593383,0.06325345652911908,0.06529908320810063,0.06325345652911908,-0.8979261704852157,-0.06678940282569011
107.54,112.04,26.278021272687205,0.13757870357345026,0.07756029726470437,0.13757870357345026,-0.9831072069220094,-0.22933170021753843
107.56,112.06,26.39137031986762,0.1479823417022065,0.03464860447308671,0.1479823417022065,-1.0220490757084288,-0.37817555081730714
107.58,112.08,23.93117859302995,0.11248662236674506,-0.04180095995348432,0.11248662236674506,-0.9994273969665874,-0.5004260528207213
107.6,112.1,19.41337527003933,0.052033799194729446,-0.1296622355372421,0.052033799194729446,-0.9113727534141173,-0.5882496807558282
107.62,112.12,13.531843931156494,-0.01494595620056749,-0.21224138388369435,-0.01494595620056749,-0.7694076992515652,-0.6411463284198351
107.64,112.14,7.076201823180848,-0.07676077344174148,-0.281292289558486,-0.07676077344174148,-0.5989511417256399,-0.6657830138206866
107.66,112.16,0.7993554073107318,-0.12968654789708875,-0.33684657458243733,-0.12968654789708875,-0.43282535470562633,-0.6732965719600547
107.68,112.18,-4.7210852577208495,-0.1764966312379755,-0.3849199310285539,-0.1764966312379755,-0.30211467053951496,-0.6749963245619882
107.7,112.2,-9.16188548928648,-0.22329452434501673,-0.4338275118690747,-0.22329452434501673,-0.2273958443888442,-0.6779405696040661
107.72,112.22,-12.429274267548715,-0.2750762301663222,-0.48924387990116786,-0.2750762301663222,-0.21282562364705773,-0.6818482925223067
107.74,112.24,-14.540351267193595,-0.3307667607521465,-0.5488412899236099,-0.3307667607521465,-0.24459493848330927,-0.6784909960724824
107.76,112.26,-15.476291475820283,-0.3798787758284226,-0.5988041952877375,-0.3798787758284226,-0.2944187704498424,-0.6541706513032648
107.78,112.28,-15.093169609180977,-0.4034460682866783,-0.6150464744323212,-0.4034460682866783,-0.32783477788359705,-0.5949400735379385
107.8,112.3,-13.146623628674025,-0.3798540523212617,-0.5703873086490491,-0.3798540523212617,-0.3156516328048605,-0.4929269986114554
107.82,112.32,-9.42158887299833,-0.2926913231434577,-0.44549461554032316,-0.2926913231434577,-0.24512501075474447,-0.3511705063706832
107.84,112.34,-3.8964299795245974,-0.13685066835595605,-0.2385163222407169,-0.13685066835595605,-0.1264447617716925,-0.18461891783113255
107.86,112.36,3.1479517501127776,0.07776320454592608,0.031016354244100288,0.07776320454592608,0.008991789937951706,-0.016513753515423665
107.88,112.38,11.126828184588982,0.32438276271158134,0.3253379110894924,0.32438276271158134,0.11913262693534134,0.12854888814275828
107.9,112.4,19.2456273405929,0.5628579936600128,0.5980616845918408,0.5628579936600128,0.167436490551558,0.23218722252068913
107.92,112.42,26.628150111528697,0.7518894301135778,0.8078418099927601,0.7518894301135778,0.13852263896909514,0.2876032744880872
107.94,112.44,32.41716456014066,0.8636603287862099,0.9299946412166855,0.8636603287862099,0.04674178660075234,0.3008819241497111
107.96,112.46,35.82714479791448,0.8893367634510188,0.959827292726893,0.8893367634510188,-0.06643534792402493,0.28785293080777924
107.98,112.48,36.17784055066018,0.8340422797435076,0.9078957038332565,0.8340422797435076,-0.14598791063544095,0.26764431462806704
108.0,112.5,32.957224183438846,0.7096505343806654,0.7922342535531582,0.7096505343806654,-0.14331959036392258,0.2551493507892681
108.02,112.52,25.94102822129453,0.5301040512201409,0.6306706971441953,0.5301040512201409,-0.03541339935685951,0.2551039488676995
108.04,112.54,15.348874246509542,0.30838720791690105,0.43460762384379736,0.30838720791690105,0.16420134879016662,0.2601601134052354
108.06,112.56,1.972889122542286,0.05593819713578585,0.20771849900165792,0.05593819713578585,0.4075030923019263,0.25412066099175357
108.08,112.58,-12.800527069259571,-0.21372455904476392,-0.04773221547026574,-0.21372455904476392,0.6272274465977882,0.21955299927166505
108.1,112.6,-27.13049803462477,-0.48029199797644484,-0.32080104478799776,-0.48029199797644484,0.7602378961453561,0.1470196225374769
108.12,112.62,-39.02168010037837,-0.7168838692879109,-0.5867221748293601,-0.7168838692879109,0.7703738609173356,0.042120359124190716
108.14,112.64,-46.71968909531388,-0.8953906962362139,-0.8106313696283209,-0.8953906962362139,0.6620253436022638,-0.07290162993624279
108.16,112.66,-49.09361596556901,-0.9908012603028221,-0.9546356442374304,-0.9908012603028221,0.4791651438303175,-0.16420247708018035
108.18,112.68,-45.891621522846044,-0.9832235715756393,-0.9831430059346346,-0.9832235715756393,0.2901013288743027,-0.19660587093357815
108.2,112.7,-37.79094790369153,-0.8630895088841762,-0.8702317619362632,-0.8630895088841762,0.16350404010015815,-0.14559446527660252
108.22,112.72,-26.227098907856334,-0.63843026124032,-0.6120129240563195,-0.63843026124032,0.14431266366329032,-0.006837343991143108
108.24,112.74,-13.05393732119776,-0.3358743866490862,-0.23619827784966524,-0.3358743866490862,0.23800404326564054,0.20007483605208923
108.26,112.76,-0.13367228709089193,0.0033759742177342233,0.19999050090842072,0.0033759742177342233,0.40867179677782794,0.43507349607601403
108.28,112.78,11.029745206897207,0.32460670717386686,0.6218586164153682,0.32460670717386686,0.5914795827290666,0.6472734931574283
108.3,112.8,19.52094664210951,0.5665118163584703,0.9544935411202602,0.5665118163584703,0.7148751450894336,0.7878673026514182
108.32,112.82,25.06273855176123,0.6894833290360165,1.1443086376297642,0.6894833290360165,0.7245365940784472,0.8223675287474485
108.34,112.84,27.899019828153616,0.7049596059383962,1.1769089465574942,0.7049596059383962,0.600989996224133,0.738945078868138
108.36,112.86,28.572106873221585,0.6644996030651618,1.0767626939953945,0.6644996030651618,0.36588719574015516,0.5511929527478413
108.38,112.88,27.676201483551633,0.6173295744560529,0.8894633198595866,0.6173295744560529,0.07598928449787284,0.2950943620710797
108.4,112.9,25.66091329375236,0.5845009252703997,0.6643023662570795,0.5845009252703997,-0.19278803279771034,0.02088253513758731
108.42,112.92,22.731331966267106,0.5636659651367897,0.4464657918782145,0.5636659651367897,-0.3666358231744704,-0.21869681241200764
108.44,112.94,18.856568806216288,0.5433223371467083,0.27184794146247704,0.5433223371467083,-0.3944788822650088,-0.38114298129301133
108.46,112.96,13.867306283329377,0.5110238054961234,0.15878641224988002,0.5110238054961234,-0.262155820406947,-0.4445605216555214
108.48,112.98,7.602674253178097,0.45573646435958903,0.1024235356265319,0.45573646435958903,0.0037806195817408545,-0.4124017525509027
108.5,113.0,0.06199655977574436,0.36845569916591836,0.07819978660416936,0.36845569916591836,0.343485114401478,-0.3109128287458374
108.52,113.02,-8.47610988927132,0.24289949198555613,0.05251569896883307,0.24289949198555613,0.6800481526112163,-0.1800163298695321
108.54,113.04,-17.395915591927217,0.0787696206105295,-0.004198723638143997,0.0787696206105295,0.9396576484897037,-0.06067575987416246
108.56,113.06,-25.77068299492742,-0.11217022511763597,-0.1053319679627932,-0.11217022511763597,1.0698125075603384,0.016990939361865753
108.58,113.08,-32.48602930248251,-0.3043770414969341,-0.2421909291433636,-0.3043770414969341,1.0504311203896672,0.040975995443946645
108.6,113.1,-36.4523474420009,-0.4668055421554686,-0.38865344445835637,-0.4668055421554686,0.8950047110928246,0.01797220206160632
108.62,113.12,-36.865348885705586,-0.5743253737976031,-0.5123380737972567,-0.5743253737976031,0.6422359256318524,-0.032246496719306454
108.64,113.14,-33.44344943779507,-0.6128226438594856,-0.5846450590876151,-0.6128226438594856,0.3418158283482333,-0.08591963776117385
108.66,113.16,-26.560785631303222,-0.579613868572158,-0.5879086157762451,-0.579613868572158,0.03976862627533001,-0.12402588539003305
108.68,113.18,-17.215947543439537,-0.4848701618392698,-0.5212634426410938,-0.4848701618392698,-0.23178248052171416,-0.13738382782085248
108.7,113.2,-6.825472372738139,-0.352688342955376,-0.4032010507414382,-0.352688342955376,-0.4581226649728679,-0.12686150805756077
108.72,113.22,3.108565868037279,-0.21681572330320203,-0.2668226213603031,-0.21681572330320203,-0.6394200598357073,-0.09972166284781665
108.74,113.24,11.357905488913685,-0.11080380406833472,-0.1481755356098612,-0.11080380406833472,-0.7847804368576962,-0.06457173310005133
108.76,113.26,17.236970401010694,-0.05756895997644447,-0.07347618666761896,-0.05756895997644447,-0.9057156653968081,-0.02746270975505147
108.78,113.28,20.688618034685327,-0.06333578151246523,-0.05149726975388613,-0.06333578151246523,-1.0107977294939294,0.009392240654652462
108.8,113.3,22.158614908342024,-0.11773849635109962,-0.07358575422348446,-0.11773849635109962,-1.10198030295309,0.04634396314177603
108.82,113.32,22.31260233669617,-0.1989460786575336,-0.11976634303377431,-0.1989460786575336,-1.1725609499160055,0.08375073986664919
108.84,113.34,21.713147147533622,-0.28129722175448524,-0.1674649985673824,-0.28129722175448524,-1.2071773736872025,0.11976248684548614
108.86,113.36,20.58853931773377,-0.3428339892555728,-0.1994174276721925,-0.3428339892555728,-1.1847356046350717,0.149534023279279
108.88,113.38,18.780887973378857,-0.37063072016625975,-0.20836412582291852,-0.37063072016625975,-1.0848048812789919,0.16600361400851027
108.9,113.4,15.88008252640688,-0.3626618159802062,-0.19762511789800485,-0.3626618159802062,-0.8965840039472611,0.16163857460245531
108.92,113.42,11.471649235463572,-0.3263939516138512,-0.17844083395470783,-0.3263939516138512,-0.6276757134861902,0.1303509835636932
108.94,113.44,5.386838578251041,-0.2757745107026024,-0.16624009591761724,-0.2757745107026024,-0.3087070969444555,0.06900343840611872
108.96,113.46,-2.142613895834478,-0.2281570634516406,-0.17735619510577824,-0.2281570634516406,0.00964715012000204,-0.021694977134080324
108.98,113.48,-10.468404377792984,-0.20084253921409273,-0.22558570048363713,-0.20084253921409273,0.26815546806355645,-0.13674028430743726
109.0,113.5,-18.630888986862434,-0.20609955021760537,-0.31732241920986054,-0.20609955021760537,0.4162696973300947,-0.2665455509484725
109.02,113.52,-25.53273485774366,-0.24556731381921326,-0.44631160273107945,-0.24556731381921326,0.42919826199577144,-0.396856649164379
109.04,113.54,-30.12726426970705,-0.30694704513449333,-0.5910601783202816,-0.30694704513449333,0.3179618757538732,-0.5095258014062004
109.06,113.56,-31.58725632403193,-0.364651650079134,-0.7163023435355397,-0.364651650079134,0.12767821230174994,-0.5850147548728549
109.08,113.58,-29.43835740794781,-0.38460944998331775,-0.7782680500872275,-0.38460944998331775,-0.07615593629799063,-0.6067931912716708
109.1,113.6,-23.64699402339482,-0.3339431892462298,-0.7350692181731487,-0.3339431892462298,-0.2286291897059891,-0.566450286180533
109.12,113.62,-14.648956135045825,-0.19324327966320248,-0.5619052099166468,-0.19324327966320248,-0.28585952716776875,-0.4673182481709576
109.14,113.64,-3.303370835315985,0.03619118531802523,-0.2634082287172203,0.03619118531802523,-0.23761189730627258,-0.3245816967970822
109.16,113.66,9.232688209654754,0.33364752304441186,0.12565269788567784,0.33364752304441186,-0.10830521556337329,-0.16127580063421268
109.18,113.68,21.691422995349722,0.6625066998475928,0.5498973366059244,0.6625066998475928,0.05279004995143762,-0.0014910898442972364
109.2,113.7,32.90144713019828,0.9723993265819397,0.9457638657941916,0.9723993265819397,0.1879449652890903,0.1365444423852182
109.22,113.72,41.958567091460296,1.2070574557568468,1.2548126943042879,1.2070574557568468,0.24860851990839689,0.24476556362805713
109.24,113.74,48.30898442304108,1.32119555367015,1.437761525421191,1.32119555367015,0.20969469784951872,0.32543165206176794
109.26,113.76,51.7221936488277,1.2951596971947814,1.4829347799250105,1.2951596971947814,0.07739169298880345,0.38746768948554927
109.28,113.78,52.17595514926721,1.136030236842104,1.4032166556544596,1.136030236842104,-0.11122831163465231,0.4408769597564002
109.3,113.8,49.716739241825444,0.8698349093595815,1.2261363743132938,0.8698349093595815,-0.2970686553069001,0.4917487089545504
109.32,113.82,44.37145348318186,0.5357209817226927,0.9860862569444033,0.5357209817226927,-0.4147259240127739,0.5397871209214445
109.34,113.84,36.15923023168282,0.18191534665685716,0.7195024634235876,0.18191534665685716,-0.4113331848250981,0.5788202398512517
109.36,113.86,25.19852831585544,-0.14418412448280982,0.4577165140102062,-0.14418412448280982,-0.26328425875398637,0.5993472333783515
109.38,113.88,11.854501506539174,-0.41080856761341694,0.2181176526366,-0.41080856761341694,0.01446747480985652,0.5916573449568285
109.4,113.9,-3.149556295483168,-0.6099853733863357,0.001428908912729468,-0.6099853733863357,0.370097935963054,0.5484378368512972
109.42,113.92,-18.71787273160873,-0.7521311553675828,-0.20134611623220866,-0.7521311553675828,0.7278254143284593,0.4665119356614178
109.44,113.94,-33.485277376957534,-0.8529634387370499,-0.3980300491363091,-0.8529634387370499,1.0083998211020382,0.34783969598433323
109.46,113.96,-46.01016479637972,-0.9234688664925685,-0.5886352614722374,-0.9234688664925685,1.1507482414457786,0.19995160755793548
109.48,113.98,-54.99656488948553,-0.9677423278332141,-0.7658623461195433,-0.9677423278332141,1.1280100281905392,0.03571979271093519
109.5,114.0,-59.482373991999,-0.9843773749750606,-0.9179414191265931,-0.9843773749750606,0.9533060703343663,-0.127824467838796
109.52,114.02,-58.95876635336214,-0.9650794815699586,-1.0275300514830688,-0.9650794815699586,0.6740459364747524,-0.271780524928848
109.54,114.04,-53.422160806433034,-0.8922345350838892,-1.0684762386201279,-0.8922345350838892,0.3569629553812261,-0.37855204613834476
109.56,114.06,-43.37829865562677,-0.7436900688582002,-1.0093460608969513,-0.7436900688582002,0.06841527304893737,-0.43535876202018214
109.58,114.08,-29.808481948909158,-0.5073261670731978,-0.8281711827424221,-0.5073261670731978,-0.14443954670736756,-0.43737208109113995
109.6,114.1,-14.085493112397172,-0.1954295739329729,-0.530522271504068,-0.1954295739329729,-0.26608978242456055,-0.38962830161442485
109.62,114.12,2.1815355133474346,0.15399119761231192,-0.15655748400645975,0.15399119761231192,-0.314634513519231,-0.3068325422867794
109.64,114.14,17.370503554170536,0.4888234787678737,0.22871664995218788,0.4888234787678737,-0.3321474538988112,-0.21052476078934362
109.66,114.16,30.090610321231935,0.7569443491237318,0.554689875007934,0.7569443491237318,-0.36636240030473266,-0.12393390747641411
109.68,114.18,39.368945647401375,0.9176581221391547,0.7643454965444594,0.9176581221391547,-0.45005992206768247,-0.06582802090001241
109.7,114.2,44.71263284738597,0.9511406832137367,0.8282839354754197,0.9511406832137367,-0.585697435878145,-0.045274510643454426
109.72,114.22,46.033565048537476,0.8635722709672038,0.7508386565256453,0.8635722709672038,-0.7411737026442854,-0.05917065914970383
109.74,114.24,43.48793204199256,0.6849691229458829,0.5674562025188623,0.6849691229458829,-0.8588113883194854,-0.09364665705391895
109.76,114.26,37.32154859700898,0.4600611711652586,0.33362431675056425,0.4600611711652586,-0.874945857090514,-0.1291692665362774
109.78,114.28,27.803012233144152,0.23305533139250584,0.10561355411081663,0.23305533139250584,-0.7435397972356824,-0.1477939533249209
109.8,114.3,15.275606358238736,0.030886195294374322,-0.08086960839985685,0.030886195294374322,-0.4555183278019725,-0.14002742164484985
109.82,114.32,0.2939635075663561,-0.1435057695461167,-0.22089052157280895,-0.1435057695461167,-0.046741816547723254,-0.10863029434841961
109.84,114.34,-16.234337477016783,-0.30260216025112396,-0.33332251392658435,-0.30260216025112396,0.4086822250358021,-0.06769318602555066
109.86,114.36,-32.99041962330792,-0.4596221800758903,-0.4449143941698378,-0.4596221800758903,0.8179493737600421,-0.037265924590207104
109.88,114.38,-48.32838021433161,-0.6184973470724678,-0.5758498987799546,-0.6184973470724678,1.0955579219601714,-0.035835318773031866
109.9,114.4,-60.50769258572998,-0.7717819940881043,-0.7317861557096834,-0.7717819940881043,1.1870433484727743,-0.07386168047030998
109.92,114.42,-68.01927304593265,-0.9048372014240087,-0.9036832629775211,-0.9048372014240087,1.0827338677602316,-0.15083078188719193
109.94,114.44,-69.90816383133773,-1.0002983403576802,-1.0718329291705233,-1.0002983403576802,0.8176298901128155,-0.25641596453712734
109.96,114.46,-65.98966426738497,-1.0369438482888436,-1.2079228358002838,-1.0369438482888436,0.45840516322488195,-0.3745763356788166
109.98,114.48,-56.88858895000009,-0.9874378603211271,-1.276279454150787,-0.9874378603211271,0.08251443642530265,-0.4886186220011233
110.0,114.5,-43.887488285195246,-0.8262603667693648,-1.2423783525802303,-0.8262603667693648,-0.2437130684396649,-0.5854817060198281
110.02,114.52,-28.62725469210404,-0.5485470243545993,-1.089945792448705,-0.5485470243545993,-0.48142123386895014,-0.6582311224138906
110.04,114.54,-12.747153035583903,-0.18347246390125704,-0.8343735387664197,-0.18347246390125704,-0.6254897032856992,-0.7064088936777008
110.06,114.56,2.42767425339275,0.2132322220113384,-0.5191723790339737,0.2132322220113384,-0.6993697974000125,-0.7342983921414059
110.08,114.58,16.054601534567336,0.5815731074175996,-0.1978533953641161,0.5815731074175996,-0.7406598599050469,-0.7475341615556944
110.1,114.6,27.751642668955125,0.8759134865446689,0.08490859499739245,0.8759134865446689,-0.7824318772365599,-0.7489854260153052
110.12,114.62,37.41454220442818,1.0721245538025674,0.3041340775697625,1.0721245538025674,-0.8367506414151268,-0.7353120507180899
110.14,114.64,44.96747944059536,1.1680417191297356,0.45762918022813426,1.1680417191297356,-0.8864597154724707,-0.6956915201371449
110.16,114.66,50.165816116000116,1.1816258270204099,0.5634833452767675,1.1816258270204099,-0.8889517104547018,-0.6137755155102551
110.18,114.68,52.542311495870756,1.1455956776008445,0.6526734590038755,1.1455956776008445,-0.7915850877644743,-0.47301501333429
110.2,114.7,51.5233812498213,1.0959601000635326,0.7571864222639236,1.0959601000635326,-0.5539133524705823,-0.2642020281200237
110.22,114.72,46.66668321489144,1.0558034094564537,0.8955190469062575,1.0558034094564537,-0.16875072515069361,0.007289065557238676
110.24,114.74,37.91846700076639,1.0192606288879908,1.0588575131426594,1.0192606288879908,0.3262937165278405,0.31776440839853765
110.26,114.76,25.783174102804853,0.9425141526856682,1.2025837794639034,0.9425141526856682,0.8523551572440508,0.627413282843012
110.28,114.78,11.339727394740036,0.7573663948657905,1.2533061287121745,0.7573663948657905,1.3081568909218424,0.8887209553968185
110.3,114.8,-3.8959760782764254,0.4241131927200572,1.1437946296915278,0.4241131927200572,1.5985461675803128,1.058801309985646
110.32,114.82,-18.20911277545287,-0.010061273957957084,0.861990081264086,-0.010061273957957084,1.6631404197506052,1.1116046429205453
110.34,114.84,-29.95094252412842,-0.4327432661759426,0.4643291719023841,-0.4327432661759426,1.495077535942934,1.0457438012263425
110.36,114.86,-37.770120324483,-0.7603045841552988,0.03556298636737565,-0.7603045841552988,1.1431574070880874,0.8850669190965275
110.38,114.88,-40.779966359431725,-0.9769238161691239,-0.351193267319606,-0.9769238161691239,0.6963985420772837,0.6715445945003926
110.4,114.9,-38.659088440806144,-1.0868909801669453,-0.6364608978493338,-1.0868909801669453,0.2561170132349583,0.4527118444700103
110.42,114.92,-31.69238881766044,-1.0721424059132754,-0.7671370429902915,-1.0721424059132754,-0.09502064348902216,0.26799086168430264
110.44,114.94,-20.748649275690507,-0.9064250782247715,-0.7113184843951897,-0.9064250782247715,-0.31636144368278696,0.1388947147438212
110.46,114.96,-7.1753127908730345,-0.5960450384334822,-0.4828504459805374,-0.5960450384334822,-0.4169851376839131,0.06672866561699978
110.48,114.98,7.404768572135031,-0.19665213789951475,-0.1447740768642451,-0.19665213789951475,-0.4453188073732807,0.03820406587215512
110.5,115.0,21.374417362911768,0.20632745503559993,0.21410244705336162,0.20632745503559993,-0.464882858711216,0.035864657938496615
110.52,115.02,33.41123715620195,0.5297592496794994,0.51090216690943,0.5297592496794994,-0.5255555758300658,0.04831732749760695
110.54,115.04,42.68835733458933,0.7182759550203787,0.6937428599943767,0.7182759550203787,-0.6413674946997939,0.07586768131051774
110.56,115.06,48.9140008781855,0.7583759302788945,0.7547988538265828,0.7583759302788945,-0.7833593093954527,0.1296772331904782
110.58,115.08,52.203505319764865,0.6793425703048932,0.7290453365120038,0.6793425703048932,-0.8901690009477636,0.2255415614350036
110.6,115.1,52.85004022543636,0.5404874569274469,0.6790714886584388,0.5404874569274469,-0.8918108336657903,0.37544065217559663
110.62,115.12,51.09983522246231,0.407434475369398,0.6695146037444767,0.407434475369398,-0.7368280639056958,0.5803948860812027
110.64,115.14,47.026829638500516,0.3261729593696634,0.7401941991330829,0.3261729593696634,-0.4123357137656311,0.8271279568128799
110.66,115.16,40.551236772877715,0.3057496604872044,0.8900868047646173,0.3057496604872044,0.049642859784072596,1.0894737581247518
110.68,115.18,31.584779150472478,0.31227407616358194,1.075451203166002,0.31227407616358194,0.580292946778503,1.3340499056053963
110.7,115.2,20.238538419220557,0.2773910005639335,1.2190846512347169,0.2773910005639335,1.0923425066336163,1.5286320014788033
110.72,115.22,7.009698125860564,0.13500678572996483,1.236181907883424,0.13500678572996483,1.501848847240862,1.6508641237325654
110.74,115.24,-7.129134644304582,-0.12380579669591607,1.0787239253139294,-0.12380579669591607,1.7468939172762112,1.6945096784308036
110.76,115.26,-20.785472491963073,-0.43558540943150637,0.768964197877556,-0.43558540943150637,1.7987786994298114,1.6706776793461209
110.78,115.28,-32.352432285749984,-0.716545021602937,0.3841708059162696,-0.716545021602937,1.6639679940347203,1.6026480364175386
110.8,115.3,-40.323135300828376,-0.9183182589495162,0.006555718676415134,-0.9183182589495162,1.3773510456448783,1.5150331197066764
110.82,115.32,-43.63447261789983,-1.0305020610676316,-0.31047238604929883,-1.0305020610676316,0.9893404205981607,1.4205817246180272
110.84,115.34,-41.94142718244256,-1.0567490478084083,-0.5430802602400971,-1.0567490478084083,0.5509957514505733,1.3100185077590174
110.86,115.36,-35.731976857568576,-1.0077049833858056,-0.6868673166664541,-1.0077049833858056,0.10213780286502785,1.1505835451159883
110.88,115.38,-26.232282504523113,-0.910533653021772,-0.752282218703283,-0.910533653021772,-0.333589490798721,0.8963200409974695
110.9,115.4,-15.116296604313288,-0.8091138805996061,-0.7628905816101292,-0.8091138805996061,-0.7456979955389723,0.5079955139905705
110.92,115.42,-4.10424855931903,-0.7436775724045932,-0.7488209983873173,-0.7436775724045932,-1.128487959575446,-0.024860641655002666
110.94,115.44,5.41946308775837,-0.7237989008860155,-0.7347730916357513,-0.7237989008860155,-1.472117426790175,-0.6697360551955227
110.96,115.46,12.643331714696043,-0.7095366419287567,-0.7292804346380686,-0.7095366419287567,-1.757321026792989,-1.352120693645431
110.98,115.48,17.354055317083855,-0.6187138662891094,-0.7226900193911427,-0.6187138662891094,-1.9555434463090704,-1.9725151639184568
111.0,115.5,19.76924733007404,-0.4016431845757713,-0.6960244584161476,-0.4016431845757713,-2.034002441657231,-2.4332220303785994
111.02,115.52,20.2683978141823,-0.14179886577267764,-0.6351254937280262,-0.14179886577267764,-1.964161371465146,-2.6650015638815416
111.04,115.54,19.140741321392277,0.019173295085847863,-0.539944969650833,0.019173295085847863,-1.731677403546797,-2.6448186935073106
111.06,115.56,16.44652968580122,0.06540261000862746,-0.42354046134654233,0.06540261000862746,-1.3453878526077052,-2.4002157656373173
111.08,115.58,12.030596891122466,0.06317800167133653,-0.3057354049559143,0.06317800167133653,-0.8424436299536577,-2.0005195727719856
111.1,115.6,5.6614155262541255,0.04435041807953724,-0.2097601586270448,0.04435041807953724,-0.2868561898001681,-1.5384575951643182
111.12,115.62,-2.7754779390291024,0.0020851643694619615,-0.16282557204547476,0.0020851643694619615,0.24004258065588416,-1.1075508491588733
111.14,115.64,-13.107843470663996,-0.08802343789083117,-0.19377616782954454,-0.08802343789083117,0.6563119224499623,-0.781030826012498
111.16,115.66,-24.784979039242486,-0.25001854710666827,-0.32267495105764415,-0.25001854710666827,0.8994167202702769,-0.5971315996906261
111.18,115.68,-36.882641202214096,-0.4889563718099393,-0.5481853916216495,-0.4889563718099393,0.9435758574298606,-0.5537356665574971
111.2,115.7,-48.19499168718295,-0.7830893807321082,-0.8443639898811134,-0.7830893807321082,0.8084790415842286,-0.6130013541136795
111.22,115.72,-57.390585601857566,-1.0881680917723822,-1.166506450609482,-1.0881680917723822,0.5557128914738158,-0.714279673132531
111.24,115.74,-63.208586570929754,-1.3433363318607943,-1.4552564554331242,-1.3433363318607943,0.27299459161642964,-0.7917745334748657
111.26,115.76,-64.67212867338561,-1.4847045042228153,-1.6402053452867746,-1.4847045042228153,0.05025236209001544,-0.7923752024928228
111.28,115.78,-61.2879059580041,-1.4732337462936897,-1.655729615968594,-1.4732337462936897,-0.0455321849130819,-0.6891548288941403
111.3,115.8,-53.186262890572706,-1.310870866289505,-1.4672514577465567,-1.310870866289505,0.010964636191311937,-0.48724326638669835
111.32,115.82,-41.14883748027416,-1.022195328899153,-1.086980946382148,-1.022195328899153,0.19702216860769475,-0.22088383847854282
111.34,115.84,-26.488707809541513,-0.6306847772901054,-0.5688842954318103,-0.6306847772901054,0.44984415713476156,0.05711176481286423
111.36,115.86,-10.796479304634989,-0.1671900660970584,0.004895062787033333,-0.1671900660970584,0.6864593253859141,0.2903141585692699
111.38,115.88,4.374384089584099,0.30790744522399216,0.5396776998853953,0.30790744522399216,0.8296199557807784,0.43383245198881193
111.4,115.9,17.77682938700259,0.7185355318000926,0.9540505790574676,0.7185355318000926,0.8320396522624097,0.4656233246025363
111.42,115.92,28.609305631759316,1.020255367944847,1.208811505986466,1.020255367944847,0.6915393211476394,0.3910928227145751
111.44,115.94,36.504447700129134,1.2188409589012261,1.3136441097095195,1.2188409589012261,0.45195704605898035,0.240099016601016
111.46,115.96,41.41470395411829,1.3395210309547207,1.3069555373661206,1.3395210309547207,0.18897327713998435,0.05766969230394791
111.48,115.98,43.47671530888041,1.3956327647930813,1.232852527061783,1.3956327647930813,-0.014761876752806142,-0.10852711392823777
111.5,116.0,42.92528766219649,1.3891092374658913,1.1308394443899559,1.3891092374658913,-0.09676856709255054,-0.22022299368837173
111.52,116.02,40.08188194173391,1.3259952766938625,1.0317965716314899,1.3259952766938625,-0.03477376816949281,-0.2568660867398487
111.54,116.04,35.38826809385241,1.2208916497317197,0.9522301208440523,1.2208916497317197,0.14705296832554665,-0.21847208708992452
111.56,116.06,29.42588979582808,1.0873627012878158,0.8899470020474227,1.0873627012878158,0.38716836132906,-0.12309796672750657
111.58,116.08,22.87494003396538,0.9296629459571046,0.8273852711422156,0.9296629459571046,0.6070413968167926,-0.00038602981261482154
111.6,116.1,16.41407727065452,0.7463672967236782,0.7426024001199021,0.7463672967236782,0.7353999010094637,0.11686922060168314
111.62,116.12,10.608074720739843,0.5412013839844976,0.6217639402018116,0.5412013839844976,0.7285410732332201,0.20122407988742197
111.64,116.14,5.843435515038378,0.32848474268199096,0.46548291493263044,0.32848474268199096,0.5811266284764467,0.23736047574590385
111.66,116.16,2.3422258676467234,0.1277709029282283,0.28694857307016247,0.1277709029282283,0.3252381862423814,0.22548231112513048
111.68,116.18,0.23272562302745484,-0.043884429519209164,0.10752717698117098,-0.043884429519209164,0.01880835549003766,0.18025177396341321
111.7,116.2,-0.38260038558117504,-0.17285322642167483,-0.04569831693149148,-0.17285322642167483,-0.27272241441648437,0.12536120398265108
111.72,116.22,0.5800282615618677,-0.24654234268112662,-0.14374352070831592,-0.24654234268112662,-0.4959759074233011,0.08528485940299418
111.74,116.24,3.114769706368695,-0.25618088242889814,-0.16509248603954896,-0.25618088242889814,-0.624675725772232,0.07684159918458823
111.76,116.26,7.0154619055116365,-0.20406820150815147,-0.1068806489623916,-0.20406820150815147,-0.6658082627515104,0.1033849864463819
111.78,116.28,11.797975325640563,-0.10712227114535268,0.010504546518243507,-0.10712227114535268,-0.6551947761141957,0.15357697302954287
111.8,116.3,16.718110334376185,0.006444827009294746,0.14833119200519063,0.006444827009294746,-0.6439269924604917,0.20515146915091223
111.82,116.32,20.89765474244721,0.10382860708932334,0.26017568751565656,0.10382860708932334,-0.6799812181839113,0.23244550573030806
111.84,116.34,23.513205162402205,0.15510483772533032,0.30417951787508407,0.15510483772533032,-0.7909741024626536,0.2152743230225861
111.86,116.36,23.97199474274354,0.1403537452002182,0.2542529608158757,0.1403537452002182,-0.9737011221543419,0.1462831880030974
111.88,116.38,22.012064669070465,0.054318219392711004,0.10777985421626812,0.054318219392711004,-1.1937436598335462,0.03439158049506796
111.9,116.4,17.70729058262684,-0.09217690616974766,-0.11212713975951932,-0.09217690616974766,-1.3949702887636104,-0.09680027086736755
111.92,116.42,11.400890177240441,-0.2745144726431316,-0.36227154434958325,-0.2745144726431316,-1.5156490171333272,-0.21522288878475346
111.94,116.44,3.610175341217702,-0.4638384772132068,-0.5950479876856027,-0.4638384772132068,-1.5062074928723659,-0.28939945025261976
111.96,116.46,-5.062659795162965,-0.6425183429169935,-0.7783858646366617,-0.6425183429169935,-1.3436863916623751,-0.29776444947464914
111.98,116.48,-13.999186328410671,-0.8116256471155627,-0.9054275534806673,-0.8116256471155627,-1.0392787519281181,-0.23551406484019816
